Time (ms),RB_End_Effecter,RB_Joint2 - o,RB_Joint1 - o,RB_Joint3 - o
0,0.0877282006154315,-25.0284979105617,-23.2927449533312,0.0534102954590056
33,0.0909283131279715,-24.8269416950602,-23.2677421455712,0.198140622861043
67,0.0753112846894224,-24.8540917696002,-23.3070539508322,0.190888659329743
100,0.0306305074017507,-25.0938011586272,-23.447798998874,0.00966568159620976
133,-0.0316054959834831,-25.3825018701481,-23.701223187868,-0.298293853182846
167,-0.0761272579265634,-25.6607686789331,-24.0675542532511,-0.751978080506618
200,-0.0584152206645921,-26.0043971755247,-24.534706930964,-1.42366324762982
233,0.0437653179176221,-26.4909768078874,-25.0636147613529,-2.27765387731062
267,0.18969370081499,-27.1006442459515,-25.5795233608126,-3.0899201169566
300,0.295860584728044,-27.6596378216863,-25.9841164659722,-3.60440467866936
333,0.324809972487121,-27.9173669146473,-26.1977976814655,-3.74488804970236
367,0.315411577074774,-27.7820354373392,-26.2203674274405,-3.63124578609994
400,0.317604123274128,-27.4618790431088,-26.158661635003,-3.4700285748235
433,0.340233155371411,-27.3107661247187,-26.1735780036757,-3.46913501885441
467,0.355301686643788,-27.5291694476796,-26.382477902561,-3.75725471206043
500,0.299675419591981,-28.0710844387048,-26.8077552875866,-4.32087710895498
533,0.0760803470265447,-28.7923856785273,-27.3972497510283,-5.03821082328172
567,-0.374802021359288,-29.5500948560806,-28.0672838877567,-5.78541932147479
600,-0.986413977130551,-30.203616172043,-28.737113741475,-6.50750756764558
633,-1.61149672651287,-30.6957982909308,-29.3582928072157,-7.20309937573423
667,-2.14095997248589,-31.1302802476659,-29.9266567732861,-7.86163981232773
700,-2.52683086744098,-31.6492118262067,-30.463759547065,-8.44313674977775
733,-2.75426025173095,-32.2566263490894,-30.9880467334004,-8.92453830740308
767,-2.85132699638646,-32.840132022419,-31.5007230398145,-9.31953159585696
800,-2.87982484386236,-33.3172755845233,-31.9855428306407,-9.65149956556242
833,-2.89200727354239,-33.6866496567267,-32.4077549277056,-9.93659082448239
867,-2.92428753149195,-33.9584240537826,-32.7209269486149,-10.1704545043743
900,-3.03018971456005,-34.1006230912173,-32.8985022332157,-10.3393498392317
933,-3.27192838173024,-34.1068037048157,-32.9652517582935,-10.4834396375683
967,-3.6466404411146,-34.0802814457093,-32.9910918720129,-10.6999746095704
1000,-4.057508791274,-34.1561831025534,-33.0510648872811,-11.0173388372131
1033,-4.39991700755387,-34.3637031469841,-33.187019820009,-11.329004851009
1067,-4.64477941502759,-34.6305226749324,-33.3964680630418,-11.5138455701721
1100,-4.81823417828858,-34.8880855054418,-33.6488957433412,-11.5619962184819
1133,-4.9398636637339,-35.1228518977592,-33.9098875395829,-11.5512545463319
1167,-5.00613740028396,-35.3457719130501,-34.1539298735974,-11.5486218725395
1200,-5.01775838788127,-35.5657279437624,-34.3647767167861,-11.5689208450573
1233,-4.99531044787287,-35.781926913628,-34.5264031955053,-11.596052620894
1267,-4.97433513606018,-35.9496867921494,-34.611683416514,-11.59717438478
1300,-5.0081288118555,-35.9703822011493,-34.5846908743602,-11.544629187437
1333,-5.15925660311911,-35.765706241995,-34.426555822051,-11.467280497887
1367,-5.44975035288807,-35.3553201679527,-34.1678470912063,-11.4432177777411
1400,-5.82074050160879,-34.8814983937974,-33.8919082082377,-11.4957819503533
1433,-6.17539986670499,-34.5834711358962,-33.7010533127743,-11.5408705896908
1467,-6.45591422325826,-34.6274828727336,-33.6660087437488,-11.484038102533
1500,-6.65392878273568,-34.9201979115576,-33.7872107336835,-11.3280497963493
1533,-6.77522202268873,-35.2165504037668,-34.0013176020726,-11.1565723634551
1567,-6.83092860463564,-35.3918605819146,-34.2279931705844,-11.049875641294
1600,-6.8459136058702,-35.4977810182667,-34.403119611722,-11.0192946071901
1633,-6.84750163232115,-35.5920441513921,-34.4729153467941,-10.991956857223
1667,-6.84482954384552,-35.606990008936,-34.3818168728985,-10.8627805188687
1700,-6.8207836226692,-35.3858774406412,-34.0852567147595,-10.5692186740297
1733,-6.7436477658407,-34.8224729305722,-33.5832192974877,-10.1337259464637
1767,-6.60235651435205,-33.9863291786918,-32.9514934793586,-9.65952903000775
1800,-6.43697571578154,-33.1428013666922,-32.3349901135712,-9.26589111505452
1833,-6.31199800988719,-32.6131291809259,-31.8812888701466,-9.01783178147732
1867,-6.25639635934638,-32.5271539274856,-31.6545330298981,-8.91310625017097
1900,-6.25007560093082,-32.704440966712,-31.6008918426322,-8.89073446195169
1933,-6.25670750279533,-32.8314566373792,-31.593941325795,-8.8513569681979
1967,-6.24897494903851,-32.7556918096621,-31.5225829109227,-8.71910375695587
2000,-6.21749770916285,-32.5641845326536,-31.345527905562,-8.49287710513887
2033,-6.17466829684377,-32.3671787550306,-31.0731356192483,-8.21883756459652
2067,-6.14174355345183,-32.0402281509816,-30.7177179604476,-7.9205122745359
2100,-6.1236281703185,-31.3169873235191,-30.2748655903152,-7.57915730024575
2133,-6.10321371787319,-30.2241907226109,-29.7486532995736,-7.18270049519431
2167,-6.06236391449263,-29.1508603878449,-29.1799408859708,-6.76998314395621
2200,-6.00477264374958,-28.3838529964846,-28.6374733001277,-6.40888119741457
2233,-5.95306670015083,-27.9120416448011,-28.1825861887585,-6.13591925467413
2267,-5.92065952241997,-27.6474931942356,-27.8409859097747,-5.9317946385533
2300,-5.89504823313946,-27.5167095704345,-27.5864997490798,-5.74218862171874
2333,-5.85376762163154,-27.3877046811612,-27.3410741668162,-5.50127541555223
2367,-5.79056076186392,-27.0948543834835,-27.0107400184689,-5.15957524539554
2400,-5.71849916625431,-26.5747611817191,-26.5405479227397,-4.71964297827634
2433,-5.65341242618959,-25.9195732478471,-25.9410244591869,-4.23390450255489
2467,-5.60802814403139,-25.2384743992228,-25.265010088942,-3.75329333366994
2500,-5.58942756053729,-24.5405113031882,-24.5651350374134,-3.28888256396874
2533,-5.58079041716189,-23.8186080853491,-23.8820283439717,-2.83894338049878
2567,-5.5317441391397,-23.1439902970029,-23.2584946159901,-2.43815542546844
2600,-5.38757950276087,-22.6084031339324,-22.7330840888543,-2.13484897582265
2633,-5.14844413275533,-22.2316668778734,-22.3108592044181,-1.92079188948611
2667,-4.88899646277279,-21.9397905144407,-21.9481473737697,-1.72315521891787
2700,-4.69147839160893,-21.6122534949445,-21.5717127318927,-1.46052903226691
2733,-4.5765197687018,-21.174031972871,-21.1258259106144,-1.10561113637191
2767,-4.51497567551019,-20.6406676011929,-20.611176699324,-0.708245655662259
2800,-4.47624048728239,-20.0686137505148,-20.0771137244962,-0.347055409253612
2833,-4.45027870074572,-19.5248891774658,-19.584995017114,-0.0738523314692522
2867,-4.43061456079345,-19.1004692095973,-19.1852891906165,0.0935728561829215
2900,-4.37999454128381,-18.8372561133282,-18.907758813874,0.172600546990644
2933,-4.23315143076865,-18.6809182463146,-18.7578331201169,0.209622347568415
2967,-3.95324906015041,-18.6074484728325,-18.7301701571541,0.230387999498927
3000,-3.57726386282465,-18.6794833380955,-18.8180236361688,0.214086725569244
3033,-3.20023543306578,-18.9165912075306,-18.9957988192084,0.157026572641555
3067,-2.91634739050511,-19.2171813919765,-19.2064682250604,0.130668047504791
3100,-2.7575491096013,-19.4354916921399,-19.3851161702079,0.234634866104475
3133,-2.68649643032105,-19.515691129361,-19.4971399090774,0.497808435788191
3167,-2.65587641668433,-19.5240783873931,-19.5526287586402,0.837188919591725
3200,-2.65207804739365,-19.5449695950497,-19.5897637180605,1.11739045186554
3233,-2.67770352723119,-19.6310059750134,-19.6494018460646,1.24466399134048
3267,-2.72077487154322,-19.8215062337624,-19.7539900309205,1.21449984839435
3300,-2.74633017808561,-20.0665493792102,-19.8956512290965,1.09993681160793
3333,-2.7021753142816,-20.2257370782525,-20.0582871265475,0.983809290286176
3367,-2.53389988559274,-20.2873847617673,-20.2667811204065,0.870399098603186
3400,-2.22238543093642,-20.4483546496408,-20.5866259687704,0.682075682924088
3433,-1.82982565083331,-20.8927757106675,-21.0476056186365,0.373816646760666
3467,-1.48037725007914,-21.6131544696185,-21.5824260638981,0.0302197094538398
3500,-1.25908670889971,-22.3872814281916,-22.0514712558729,-0.18234980055353
3533,-1.15149717776585,-22.8454580925124,-22.3265159115758,-0.160757368442148
3567,-1.09890762714935,-22.7539813220686,-22.3774231159623,0.0357514863791102
3600,-1.07631564571416,-22.3320830617403,-22.3038953323786,0.217601392123202
3633,-1.09340412641217,-22.1015373284165,-22.2684428463802,0.207977115755388
3667,-1.14585803989471,-22.3483971387843,-22.3794529239881,-0.0259893736571815
3700,-1.20047742416196,-22.8924684918197,-22.6411138837942,-0.38708898419979
3733,-1.22608079040014,-23.4021530409098,-23.0018002998782,-0.770639553210497
3767,-1.21869987166841,-23.7551377531155,-23.4194918757495,-1.14510862396314
3800,-1.19952225797724,-24.0629497579736,-23.8828379425234,-1.54026492141387
3833,-1.19860028262407,-24.4915691547791,-24.3975389061326,-1.99520828354315
3867,-1.23327757015221,-25.136732605931,-24.960496995557,-2.51974455271292
3900,-1.29294590507653,-25.9619403670561,-25.5354818675673,-3.0747271090024
3933,-1.3489631322804,-26.7395714620406,-26.0530676073108,-3.57139664848047
3967,-1.38457321779384,-27.2014450925178,-26.4530915006825,-3.9339806801849
4000,-1.40896810686343,-27.3571807849749,-26.7345711237563,-4.18489023177885
4033,-1.43857638990616,-27.4680542151624,-26.9470498276451,-4.42419938002242
4067,-1.47327985597678,-27.6778355281347,-27.1315751617585,-4.71153520272868
4100,-1.50299944650513,-27.8867023372548,-27.2910742665671,-5.01039722401679
4133,-1.53972666784212,-27.9782048804371,-27.4226607165063,-5.26501695941588
4167,-1.63553417774824,-27.9962847370607,-27.5563175124591,-5.48696203103875
4200,-1.84698750658707,-28.0852317437289,-27.739080205107,-5.74282309427182
4233,-2.1542580613555,-28.3356943303541,-27.9848696928596,-6.07651035890616
4267,-2.4437676196151,-28.6991202025943,-28.2515900789213,-6.43880108979089
4300,-2.61163972810209,-29.0123438404782,-28.4610155948029,-6.69557804599328
4333,-2.65141360372215,-29.1187056871466,-28.5453406866866,-6.739583341904
4367,-2.62419987228991,-29.0099722356656,-28.4968594022621,-6.5883502440079
4400,-2.58808695986384,-28.8303202629662,-28.3768171352414,-6.36031190763704
4433,-2.56771544859127,-28.7319086116631,-28.2670783281668,-6.18552018206988
4467,-2.5624536575325,-28.7532536899856,-28.2109172411997,-6.12954429484752
4500,-2.56430575343256,-28.8184976393355,-28.1956311768886,-6.16666160155084
4533,-2.56748845537158,-28.8283101674077,-28.1792433254462,-6.22163258305973
4567,-2.5695544425353,-28.7404551064994,-28.1268603288771,-6.23885242295654
4600,-2.57005225947976,-28.579709541345,-28.0336021977782,-6.21934052043165
4633,-2.56979108082478,-28.4088796516781,-27.9292606418237,-6.20207924851813
4667,-2.57119291055139,-28.277959426107,-27.8619317764691,-6.22413369083718
4700,-2.57836997777113,-28.2017511954035,-27.8700983227824,-6.30757707206185
4733,-2.59408554422681,-28.2057528471123,-27.96501612798,-6.46329217726467
4767,-2.6151584448921,-28.3404382027295,-28.1289386663994,-6.68450830279462
4800,-2.63457163698893,-28.5961105914434,-28.3107103264081,-6.92509908306633
4833,-2.64790785946377,-28.837820026331,-28.4227893625548,-7.09888583784906
4867,-2.6506430489072,-28.8790810754836,-28.369551888966,-7.12218435546079
4900,-2.62901584276141,-28.6065895508505,-28.0979455336822,-6.93900015133013
4933,-2.56422548654556,-28.0485189688675,-27.6333917942745,-6.52985961973741
4967,-2.45594635825218,-27.373996166735,-27.0799034904239,-5.96742113572774
5000,-2.33634431952248,-26.7947068506792,-26.5774286880717,-5.43759826592733
5033,-2.24664940404412,-26.446533184922,-26.235686736469,-5.1210482313344
5067,-2.20159255616494,-26.3603271021186,-26.0862549560214,-5.04870136241412
5100,-2.18492849179719,-26.4584556460979,-26.0793397238995,-5.10426432914192
5133,-2.17438545109473,-26.5690641975887,-26.1221024639089,-5.14920679247921
5167,-2.16332971055514,-26.5524697458516,-26.1318175459671,-5.1231188093293
5200,-2.15836585922189,-26.4239136068851,-26.0639927101037,-5.04535898449814
5233,-2.16087203485307,-26.2757756620709,-25.8958015714915,-4.95113728574982
5267,-2.15368852178021,-26.0896262885771,-25.5951685830076,-4.81608655096265
5300,-2.10336346593197,-25.7060752096592,-25.1269957861452,-4.54512575015282
5333,-1.98736310314483,-25.0254756036589,-24.5040381267811,-4.0825132145686
5367,-1.83309272851807,-24.1959022725144,-23.8227089016782,-3.52805071870145
5400,-1.70466097545516,-23.5262512481387,-23.2245095663045,-3.08435166797155
5433,-1.63595273439426,-23.2006371114169,-22.8106525689499,-2.86400528826898
5467,-1.60526360691728,-23.1422398859811,-22.5948280797688,-2.79068046219854
5500,-1.57665727333899,-23.1769594117552,-22.5271458117251,-2.71724845962966
5533,-1.54036178318484,-23.2216967661496,-22.54467870784,-2.57800196585134
5567,-1.50960859533116,-23.2766074521881,-22.5983304126327,-2.39411997770634
5600,-1.49364507760579,-23.3432657637985,-22.6504439355299,-2.20016797216098
5633,-1.48813839068099,-23.3941931264829,-22.6677233260352,-2.0083258206266
5667,-1.48675045164154,-23.3817923736195,-22.6259163175958,-1.81773689452946
5700,-1.48643828531101,-23.2648230668425,-22.5225430750905,-1.63525883280009
5733,-1.47220025283801,-23.0667235210414,-22.3896108752964,-1.49617289899471
5767,-1.39940877266459,-22.9040345705343,-22.2907206875889,-1.4752758388856
5800,-1.21978122583123,-22.8755304079254,-22.2890562905368,-1.65064080114039
5833,-0.953356787045634,-22.952138716398,-22.4177872459317,-2.02779551812425
5867,-0.706561825731998,-23.0842436873013,-22.6922141044782,-2.52741333765026
5900,-0.580024203166463,-23.3685436599342,-23.1294498141536,-3.06348040133282
5933,-0.581618959619764,-23.946525416503,-23.7217185917245,-3.58232390498201
5967,-0.648207036514334,-24.7386707695353,-24.3952260817861,-4.02863027488316
6000,-0.721959935867627,-25.4723898885009,-25.0264592448312,-4.36742474682029
6033,-0.787200960036827,-25.9724326552061,-25.5108493661731,-4.63703966809871
6067,-0.843960407353576,-26.2408379184292,-25.810355500177,-4.88800108842548
6100,-0.859990785528352,-26.3215146157708,-25.9474874292917,-5.08888920963481
6133,-0.750115514734654,-26.2733341691973,-25.9827158694292,-5.14469820431669
6167,-0.412880031202651,-26.2353038986566,-25.9945431280643,-4.98007941902032
6200,0.175130151695469,-26.3635979680551,-26.0440978275921,-4.60826121210439
6233,0.887871783022269,-26.6593784536163,-26.1400876305927,-4.14362435153229
6267,1.50753622369777,-26.9324201483796,-26.2456307476874,-3.73632777442788
6300,1.88344013144445,-26.985766331331,-26.3269024228096,-3.48206202500778
6333,2.02619906423382,-26.839066045484,-26.4003893090161,-3.38498294006604
6367,2.04579379571666,-26.7561399272915,-26.5309812816412,-3.41340209986304
6400,2.03585718341059,-26.977771677161,-26.7676104543921,-3.56538475041917
6433,2.03180576189962,-27.4399497459245,-27.0795588808051,-3.83830019005563
6467,2.03706530584143,-27.8620265330508,-27.371474792763,-4.16746789836485
6500,2.04918423925105,-28.0476724620442,-27.5549361527506,-4.42297245461628
6533,2.06081484486874,-27.9981059104742,-27.6010019263311,-4.46896388527751
6567,2.04488563674077,-27.8290764471003,-27.5519343270315,-4.27976576028243
6600,1.94998201619263,-27.6991630773817,-27.5037711704,-4.02682574940174
6633,1.74153046116379,-27.7617057450604,-27.559243246056,-3.97881322398395
6667,1.45772234758641,-28.0734992820063,-27.7662569490475,-4.24096647909529
6700,1.19963480216912,-28.5408001542112,-28.0843071584127,-4.62955809163291
6733,1.05165239564364,-28.9713442969852,-28.409407537571,-4.86518920483635
6767,1.0204433840313,-29.2011225828567,-28.6438264683101,-4.84308917636903
6800,1.05853040419617,-29.2176863328435,-28.7490221153816,-4.66059663444193
6833,1.11937875606944,-29.1580282461104,-28.7350725359003,-4.45600492714077
6867,1.15896813641494,-29.1366924901611,-28.6140880124093,-4.29164210069267
6900,1.0964181189682,-29.0769204690419,-28.3779083397103,-4.15006866634889
6933,0.816364907067292,-28.7949029441386,-28.0286656068151,-4.0061405241063
6967,0.273331676810242,-28.2677829637485,-27.6319982431384,-3.90733165363924
7000,-0.410229786576483,-27.7415257638887,-27.324235413415,-3.9626228378976
7033,-1.03738018816144,-27.5441924040914,-27.2414184208056,-4.24163557356597
7067,-1.49838169077779,-27.8026682094689,-27.4272135882786,-4.69463205895905
7100,-1.77672092981702,-28.3478965086466,-27.8080349522554,-5.1669500585135
7133,-1.89569359931615,-28.8917918650242,-28.2514361103217,-5.50945940111865
7167,-1.90973530633869,-29.2792275330608,-28.646717093721,-5.67920225055301
7200,-1.88059078083899,-29.5464746783754,-28.9381027123281,-5.71173551228671
7233,-1.85043547260198,-29.7552625639604,-29.0995609945886,-5.63442682497688
7267,-1.85093192987575,-29.860148213155,-29.1104208117847,-5.45294876114625
7300,-1.91958203862439,-29.7533027193542,-28.9687721616194,-5.21302071622111
7333,-2.07683276188589,-29.3834809115147,-28.7147713121319,-5.02768459835114
7367,-2.26303572725179,-28.8514935129781,-28.4333097046637,-4.98015917130782
7400,-2.33843455197952,-28.3994293608296,-28.2254137554353,-5.01620129706556
7433,-2.21910300502637,-28.2479573433011,-28.1582720051622,-5.02395241477176
7467,-1.98285693904012,-28.4191752827274,-28.2285457595099,-4.99260737198762
7500,-1.77251578487823,-28.7241437098688,-28.3656554843308,-4.98125077387356
7533,-1.64884042844516,-28.9211755734092,-28.4765920199304,-4.98243384645432
7567,-1.5913808858611,-28.9060109852305,-28.5045727652501,-4.93523820634396
7600,-1.5704556841157,-28.7644530448287,-28.4470346603818,-4.83246751149954
7633,-1.56942962734246,-28.637939860501,-28.3183030712941,-4.71915444903843
7667,-1.57829823131193,-28.5356091927732,-28.1149419290808,-4.60006850041192
7700,-1.59185915839018,-28.3188792837207,-27.8345123417965,-4.42582196972477
7733,-1.60423399869344,-27.935182385397,-27.5236442167541,-4.18909168468925
7767,-1.59835465688613,-27.568168091658,-27.2827869864746,-3.97853802826968
7800,-1.5429696323244,-27.4425014655114,-27.1988050230854,-3.89580287808082
7833,-1.41856935536287,-27.5894066342893,-27.2701510058917,-3.9449091341285
7867,-1.25737965864142,-27.8539172400746,-27.3994403421553,-4.02615689436527
7900,-1.12473919551618,-28.0099496607323,-27.4510343790474,-4.00856935592834
7933,-1.05184703011585,-27.8742124146892,-27.3313585107093,-3.81538708732926
7967,-1.02313991970633,-27.4531358226493,-27.0483982808229,-3.49072356676289
8000,-1.01581020040378,-26.9800989420075,-26.6962074418256,-3.164524526503
8033,-1.01859560113252,-26.6771623556989,-26.364332510336,-2.92355863578198
8067,-1.02760958869993,-26.4992477675922,-26.0685369498381,-2.74926951838742
8100,-1.0394297793665,-26.2334527821748,-25.7822739586641,-2.5817950020607
8133,-1.04144218191306,-25.8171528714212,-25.5185351421504,-2.41555016099886
8167,-1.00453718962258,-25.4507020598895,-25.3497506651792,-2.32162500786421
8200,-0.896161946531712,-25.3867339637495,-25.3452839913656,-2.3731266254812
8233,-0.720076308951848,-25.6588577513457,-25.5037754241703,-2.56404008681759
8267,-0.533231108474861,-26.0584933069159,-25.7437676334885,-2.80842882863853
8300,-0.39422493009321,-26.3436066575918,-25.9541554970607,-2.99715826121646
8333,-0.311444612650456,-26.4062652134862,-26.0613079474478,-3.0657035988413
8367,-0.265065499191423,-26.2975449657715,-26.0614242077813,-3.041232276594
8400,-0.246226647787071,-26.1633537289944,-25.9968975821363,-3.00889052547893
8433,-0.253489608632481,-26.1053919466017,-25.9018968965497,-3.01630230648401
8467,-0.274963521076694,-26.0704248001703,-25.7678739135692,-3.02654796373032
8500,-0.288301885182073,-25.8999690759489,-25.560472723557,-2.96469435122859
8533,-0.281028586813895,-25.5164116886096,-25.2729606967176,-2.8109161370352
